Time (s)	[F-actin] M	[G-act]	[SPIN90]	[G-act] (t)	[Arp2/3]
15.04	0	0.000003	0.000001	0.000003	0.000000025
25.03	4.3218E-09	0.000003	0.000001	2.99568E-06	0.000000025
35.01	6.79496E-09	0.000003	0.000001	2.99321E-06	0.000000025
45.02	1.04745E-08	0.000003	0.000001	2.98953E-06	0.000000025
55.02	1.68543E-08	0.000003	0.000001	2.98315E-06	0.000000025
65.02	2.80598E-08	0.000003	0.000001	2.97194E-06	0.000000025
75.01	3.91109E-08	0.000003	0.000001	2.96089E-06	0.000000025
85.01	5.76826E-08	0.000003	0.000001	2.94232E-06	0.000000025
95.02	7.3217E-08	0.000003	0.000001	2.92678E-06	0.000000025
105.01	9.06976E-08	0.000003	0.000001	2.9093E-06	0.000000025
115.03	1.14333E-07	0.000003	0.000001	2.88567E-06	0.000000025
125.01	1.35773E-07	0.000003	0.000001	2.86423E-06	0.000000025
135.01	1.68923E-07	0.000003	0.000001	2.83108E-06	0.000000025
145.02	1.95452E-07	0.000003	0.000001	2.80455E-06	0.000000025
155.02	2.28181E-07	0.000003	0.000001	2.77182E-06	0.000000025
165.01	2.58464E-07	0.000003	0.000001	2.74154E-06	0.000000025
175.01	2.91718E-07	0.000003	0.000001	2.70828E-06	0.000000025
185.01	3.2322E-07	0.000003	0.000001	2.67678E-06	0.000000025
195.02	3.61241E-07	0.000003	0.000001	2.63876E-06	0.000000025
205.02	4.04992E-07	0.000003	0.000001	2.59501E-06	0.000000025
215.02	4.36882E-07	0.000003	0.000001	2.56312E-06	0.000000025
225.02	4.81583E-07	0.000003	0.000001	2.51842E-06	0.000000025
235.01	5.13929E-07	0.000003	0.000001	2.48607E-06	0.000000025
245.01	5.57531E-07	0.000003	0.000001	2.44247E-06	0.000000025
255.02	6.08062E-07	0.000003	0.000001	2.39194E-06	0.000000025
265.02	6.48184E-07	0.000003	0.000001	2.35182E-06	0.000000025
275.01	6.87057E-07	0.000003	0.000001	2.31294E-06	0.000000025
285.02	7.26654E-07	0.000003	0.000001	2.27335E-06	0.000000025
295.02	7.72627E-07	0.000003	0.000001	2.22737E-06	0.000000025
305.01	8.20637E-07	0.000003	0.000001	2.17936E-06	0.000000025
315.02	8.57245E-07	0.000003	0.000001	2.14276E-06	0.000000025
325.01	9.04107E-07	0.000003	0.000001	2.09589E-06	0.000000025
335.01	9.42088E-07	0.000003	0.000001	2.05791E-06	0.000000025
345.01	9.85522E-07	0.000003	0.000001	2.01448E-06	0.000000025
355.01	1.02183E-06	0.000003	0.000001	1.97817E-06	0.000000025
365.02	1.06416E-06	0.000003	0.000001	1.93584E-06	0.000000025
375.02	1.11158E-06	0.000003	0.000001	1.88842E-06	0.000000025
385.01	1.15154E-06	0.000003	0.000001	1.84846E-06	0.000000025
395.02	1.20171E-06	0.000003	0.000001	1.79829E-06	0.000000025
405.01	1.23723E-06	0.000003	0.000001	1.76277E-06	0.000000025
415.02	1.28482E-06	0.000003	0.000001	1.71518E-06	0.000000025
425.02	1.3135E-06	0.000003	0.000001	1.6865E-06	0.000000025
435.02	1.34344E-06	0.000003	0.000001	1.65656E-06	0.000000025
445.01	1.39216E-06	0.000003	0.000001	1.60784E-06	0.000000025
455.02	1.41846E-06	0.000003	0.000001	1.58154E-06	0.000000025
465.02	1.4564E-06	0.000003	0.000001	1.5436E-06	0.000000025
475.01	1.4947E-06	0.000003	0.000001	1.5053E-06	0.000000025
485.01	1.53843E-06	0.000003	0.000001	1.46157E-06	0.000000025
495.02	1.55731E-06	0.000003	0.000001	1.44269E-06	0.000000025
505.01	1.60375E-06	0.000003	0.000001	1.39625E-06	0.000000025
515.01	1.6249E-06	0.000003	0.000001	1.3751E-06	0.000000025
525.02	1.6573E-06	0.000003	0.000001	1.3427E-06	0.000000025
535.02	1.69816E-06	0.000003	0.000001	1.30184E-06	0.000000025
545.01	1.72487E-06	0.000003	0.000001	1.27513E-06	0.000000025
555.02	1.756E-06	0.000003	0.000001	1.244E-06	0.000000025
565.01	1.76813E-06	0.000003	0.000001	1.23187E-06	0.000000025
575.01	1.82361E-06	0.000003	0.000001	1.17639E-06	0.000000025
585.02	1.83531E-06	0.000003	0.000001	1.16469E-06	0.000000025
595.02	1.86461E-06	0.000003	0.000001	1.13539E-06	0.000000025
605.02	1.88651E-06	0.000003	0.000001	1.11349E-06	0.000000025
615.02	1.9208E-06	0.000003	0.000001	1.0792E-06	0.000000025
625.02	1.95234E-06	0.000003	0.000001	1.04766E-06	0.000000025
635.01	1.95795E-06	0.000003	0.000001	1.04205E-06	0.000000025
645	2.00398E-06	0.000003	0.000001	9.96024E-07	0.000000025
655.02	2.03894E-06	0.000003	0.000001	9.61059E-07	0.000000025
665.03	2.03283E-06	0.000003	0.000001	9.67169E-07	0.000000025
675.02	2.06345E-06	0.000003	0.000001	9.36549E-07	0.000000025
685.01	2.08841E-06	0.000003	0.000001	9.11589E-07	0.000000025
695.01	2.11649E-06	0.000003	0.000001	8.83508E-07	0.000000025
705.02	2.13601E-06	0.000003	0.000001	8.63985E-07	0.000000025
715.02	2.15605E-06	0.000003	0.000001	8.43948E-07	0.000000025
725.02	2.16713E-06	0.000003	0.000001	8.32867E-07	0.000000025
735.02	2.18907E-06	0.000003	0.000001	8.10928E-07	0.000000025
745.01	2.20537E-06	0.000003	0.000001	7.94631E-07	0.000000025
755.02	2.2203E-06	0.000003	0.000001	7.79705E-07	0.000000025
765.02	2.24493E-06	0.000003	0.000001	7.55066E-07	0.000000025
775.02	2.2778E-06	0.000003	0.000001	7.22196E-07	0.000000025
785.01	2.28568E-06	0.000003	0.000001	7.14317E-07	0.000000025
795.02	2.29265E-06	0.000003	0.000001	7.07348E-07	0.000000025
805.02	2.32325E-06	0.000003	0.000001	6.76752E-07	0.000000025
815.01	2.33782E-06	0.000003	0.000001	6.62179E-07	0.000000025
825.03	2.34582E-06	0.000003	0.000001	6.54177E-07	0.000000025
835.02	2.36366E-06	0.000003	0.000001	6.3634E-07	0.000000025
845.03	2.37775E-06	0.000003	0.000001	6.22252E-07	0.000000025
855.01	2.39258E-06	0.000003	0.000001	6.07423E-07	0.000000025
865.01	2.40427E-06	0.000003	0.000001	5.95734E-07	0.000000025
875.01	2.4337E-06	0.000003	0.000001	5.66304E-07	0.000000025
885.02	2.43304E-06	0.000003	0.000001	5.66961E-07	0.000000025
895.01	2.44636E-06	0.000003	0.000001	5.53642E-07	0.000000025
905.02	2.44677E-06	0.000003	0.000001	5.53232E-07	0.000000025
915.02	2.47064E-06	0.000003	0.000001	5.29358E-07	0.000000025
925.02	2.4876E-06	0.000003	0.000001	5.12397E-07	0.000000025
935.02	2.49779E-06	0.000003	0.000001	5.02212E-07	0.000000025
945.02	2.5157E-06	0.000003	0.000001	4.84296E-07	0.000000025
955.01	2.52954E-06	0.000003	0.000001	4.7046E-07	0.000000025
965.02	2.53857E-06	0.000003	0.000001	4.61428E-07	0.000000025
975.02	2.55169E-06	0.000003	0.000001	4.48313E-07	0.000000025
985	2.54348E-06	0.000003	0.000001	4.5652E-07	0.000000025
995.02	2.54439E-06	0.000003	0.000001	4.55605E-07	0.000000025
1005.01	2.58352E-06	0.000003	0.000001	4.16482E-07	0.000000025
1015.01	2.57069E-06	0.000003	0.000001	4.29314E-07	0.000000025
1025.02	2.58725E-06	0.000003	0.000001	4.12752E-07	0.000000025
1035.01	2.60933E-06	0.000003	0.000001	3.90673E-07	0.000000025
1045.01	2.62677E-06	0.000003	0.000001	3.73233E-07	0.000000025
1055.01	2.61192E-06	0.000003	0.000001	3.88083E-07	0.000000025
1065.01	2.62643E-06	0.000003	0.000001	3.73574E-07	0.000000025
1075.02	2.62802E-06	0.000003	0.000001	3.71976E-07	0.000000025
1085.02	2.64579E-06	0.000003	0.000001	3.54213E-07	0.000000025
1095.03	2.64496E-06	0.000003	0.000001	3.55041E-07	0.000000025
1105.02	2.65241E-06	0.000003	0.000001	3.4759E-07	0.000000025
1115.02	2.67045E-06	0.000003	0.000001	3.29554E-07	0.000000025
1125.02	2.68411E-06	0.000003	0.000001	3.15892E-07	0.000000025
1135.02	2.68537E-06	0.000003	0.000001	3.14634E-07	0.000000025
1145	2.68289E-06	0.000003	0.000001	3.17109E-07	0.000000025
1155.01	2.69191E-06	0.000003	0.000001	3.08089E-07	0.000000025
1165.03	2.7086E-06	0.000003	0.000001	2.914E-07	0.000000025
1175.02	2.70502E-06	0.000003	0.000001	2.94982E-07	0.000000025
1185.01	2.72384E-06	0.000003	0.000001	2.76161E-07	0.000000025
1195.01	2.71792E-06	0.000003	0.000001	2.8208E-07	0.000000025
1205.01	2.72877E-06	0.000003	0.000001	2.71228E-07	0.000000025
1215.02	2.72758E-06	0.000003	0.000001	2.72423E-07	0.000000025
1225.01	2.7453E-06	0.000003	0.000001	2.54698E-07	0.000000025
1235.03	2.73431E-06	0.000003	0.000001	2.65694E-07	0.000000025
1245.02	2.74624E-06	0.000003	0.000001	2.53763E-07	0.000000025
1255.02	2.73578E-06	0.000003	0.000001	2.6422E-07	0.000000025
1265.01	2.76226E-06	0.000003	0.000001	2.37739E-07	0.000000025
1275.02	2.77058E-06	0.000003	0.000001	2.29416E-07	0.000000025
1285.01	2.74368E-06	0.000003	0.000001	2.56321E-07	0.000000025
1295.02	2.76315E-06	0.000003	0.000001	2.36852E-07	0.000000025
1305.01	2.77286E-06	0.000003	0.000001	2.27138E-07	0.000000025
1315.02	2.76648E-06	0.000003	0.000001	2.3352E-07	0.000000025
1325.01	2.77836E-06	0.000003	0.000001	2.21637E-07	0.000000025
1335.02	2.79015E-06	0.000003	0.000001	2.09851E-07	0.000000025
1345.01	2.78382E-06	0.000003	0.000001	2.16185E-07	0.000000025
1355.02	2.78764E-06	0.000003	0.000001	2.12356E-07	0.000000025
1365.02	2.78792E-06	0.000003	0.000001	2.12083E-07	0.000000025
1375.01	2.7891E-06	0.000003	0.000001	2.10898E-07	0.000000025
1385.02	2.80844E-06	0.000003	0.000001	1.91562E-07	0.000000025
1395.03	2.79916E-06	0.000003	0.000001	2.00839E-07	0.000000025
1405.01	2.81728E-06	0.000003	0.000001	1.82725E-07	0.000000025
1415.01	2.81378E-06	0.000003	0.000001	1.86218E-07	0.000000025
1425.01	2.82626E-06	0.000003	0.000001	1.73737E-07	0.000000025
1435.01	2.81411E-06	0.000003	0.000001	1.85888E-07	0.000000025
1445.01	2.8273E-06	0.000003	0.000001	1.72702E-07	0.000000025
1455.02	2.80521E-06	0.000003	0.000001	1.94794E-07	0.000000025
1465.01	2.81319E-06	0.000003	0.000001	1.86807E-07	0.000000025
1475.02	2.81502E-06	0.000003	0.000001	1.84976E-07	0.000000025
1485.03	2.81274E-06	0.000003	0.000001	1.87265E-07	0.000000025
1495.02	2.83604E-06	0.000003	0.000001	1.63958E-07	0.000000025
1505.01	2.84588E-06	0.000003	0.000001	1.54118E-07	0.000000025
1515.02	2.83568E-06	0.000003	0.000001	1.64325E-07	0.000000025
1525.02	2.8439E-06	0.000003	0.000001	1.561E-07	0.000000025
1535.02	2.83871E-06	0.000003	0.000001	1.61286E-07	0.000000025
1545.01	2.83977E-06	0.000003	0.000001	1.6023E-07	0.000000025
1555.01	2.83576E-06	0.000003	0.000001	1.64238E-07	0.000000025
1565.01	2.84427E-06	0.000003	0.000001	1.55735E-07	0.000000025
1575.01	2.8478E-06	0.000003	0.000001	1.52204E-07	0.000000025
1585.02	2.85107E-06	0.000003	0.000001	1.48933E-07	0.000000025
1595.02	2.8385E-06	0.000003	0.000001	1.61502E-07	0.000000025
1605.01	2.86039E-06	0.000003	0.000001	1.39611E-07	0.000000025
1615.02	2.85864E-06	0.000003	0.000001	1.41364E-07	0.000000025
1625	2.87129E-06	0.000003	0.000001	1.28713E-07	0.000000025
1635.02	2.86494E-06	0.000003	0.000001	1.35061E-07	0.000000025
1645.02	2.86361E-06	0.000003	0.000001	1.36395E-07	0.000000025
1655.01	2.87288E-06	0.000003	0.000001	1.27121E-07	0.000000025
1665.01	2.86224E-06	0.000003	0.000001	1.37759E-07	0.000000025
1675.01	2.86986E-06	0.000003	0.000001	1.30144E-07	0.000000025
1685.01	2.87436E-06	0.000003	0.000001	1.2564E-07	0.000000025
1695.01	2.87754E-06	0.000003	0.000001	1.22464E-07	0.000000025
1705.01	2.87809E-06	0.000003	0.000001	1.21909E-07	0.000000025
1715.03	2.87594E-06	0.000003	0.000001	1.24059E-07	0.000000025
1725.01	2.87115E-06	0.000003	0.000001	1.28846E-07	0.000000025
1735.01	2.88E-06	0.000003	0.000001	1.20002E-07	0.000000025
1745.02	2.87406E-06	0.000003	0.000001	1.25938E-07	0.000000025
1755.02	2.87104E-06	0.000003	0.000001	1.28956E-07	0.000000025
1765.01	2.87791E-06	0.000003	0.000001	1.22088E-07	0.000000025
1775.01	2.87978E-06	0.000003	0.000001	1.20222E-07	0.000000025
1785.01	2.88067E-06	0.000003	0.000001	1.19331E-07	0.000000025
1795.01	2.89101E-06	0.000003	0.000001	1.0899E-07	0.000000025
1805.02	2.87951E-06	0.000003	0.000001	1.20493E-07	0.000000025
1815.01	2.87581E-06	0.000003	0.000001	1.24192E-07	0.000000025
1825.02	2.88205E-06	0.000003	0.000001	1.17951E-07	0.000000025
1835.02	2.88254E-06	0.000003	0.000001	1.17459E-07	0.000000025
1845.02	2.88443E-06	0.000003	0.000001	1.15572E-07	0.000000025
1855.02	2.89127E-06	0.000003	0.000001	1.08731E-07	0.000000025
1865.02	2.87724E-06	0.000003	0.000001	1.22762E-07	0.000000025
1875.03	2.86818E-06	0.000003	0.000001	1.31817E-07	0.000000025
1885.01	2.87397E-06	0.000003	0.000001	1.26027E-07	0.000000025
1895.03	2.88053E-06	0.000003	0.000001	1.19468E-07	0.000000025
1905.01	2.88217E-06	0.000003	0.000001	1.17827E-07	0.000000025
1915.02	2.89097E-06	0.000003	0.000001	1.09032E-07	0.000000025
1925.01	2.87489E-06	0.000003	0.000001	1.25109E-07	0.000000025
1935.01	2.88681E-06	0.000003	0.000001	1.13187E-07	0.000000025
1945.01	2.88139E-06	0.000003	0.000001	1.18609E-07	0.000000025
1955.01	2.87308E-06	0.000003	0.000001	1.26917E-07	0.000000025
1965.03	0.0000029	0.000003	0.000001	1E-07	0.000000025
1975.02	2.89471E-06	0.000003	0.000001	1.0529E-07	0.000000025
1985.01	2.89429E-06	0.000003	0.000001	1.05713E-07	0.000000025
1995.02	2.89518E-06	0.000003	0.000001	1.04824E-07	0.000000025
2005.02	2.89618E-06	0.000003	0.000001	1.0382E-07	0.000000025
2015.01	2.89308E-06	0.000003	0.000001	1.06917E-07	0.000000025
2025.01	2.89999E-06	0.000003	0.000001	1.00007E-07	0.000000025
2035.01	2.88453E-06	0.000003	0.000001	1.15472E-07	0.000000025
2045.02	2.88422E-06	0.000003	0.000001	1.15779E-07	0.000000025
2055.02	2.879E-06	0.000003	0.000001	1.21002E-07	0.000000025
2065.02	2.86907E-06	0.000003	0.000001	1.30932E-07	0.000000025
2075.02	2.89547E-06	0.000003	0.000001	1.04531E-07	0.000000025
2085.02	2.89248E-06	0.000003	0.000001	1.07521E-07	0.000000025
2095.02	2.88066E-06	0.000003	0.000001	1.19336E-07	0.000000025
2105.01	2.8913E-06	0.000003	0.000001	1.087E-07	0.000000025
2115.01	2.89305E-06	0.000003	0.000001	1.06953E-07	0.000000025
2125.02	2.89688E-06	0.000003	0.000001	1.03121E-07	0.000000025
2135.01	2.88618E-06	0.000003	0.000001	1.13821E-07	0.000000025
2145.01	2.87873E-06	0.000003	0.000001	1.21272E-07	0.000000025
2155.01	2.87174E-06	0.000003	0.000001	1.2826E-07	0.000000025
2165.02	2.8842E-06	0.000003	0.000001	1.15797E-07	0.000000025
2175.02	2.88634E-06	0.000003	0.000001	1.13664E-07	0.000000025
2185.01	2.88706E-06	0.000003	0.000001	1.12944E-07	0.000000025
2195.01	2.88054E-06	0.000003	0.000001	1.19459E-07	0.000000025
2205.02	2.89456E-06	0.000003	0.000001	1.05436E-07	0.000000025
2215.02	2.88598E-06	0.000003	0.000001	1.14025E-07	0.000000025
