Time (s)	[F-actin] M	[G-act]	[SPIN90]	[G-act] (t)	[Arp2/3]
15.04	0	0.000003	0.00000175	0.000003	0.000000025
25.03	4.78723E-09	0.000003	0.00000175	2.99521E-06	0.000000025
35.01	1.06514E-08	0.000003	0.00000175	2.98935E-06	0.000000025
45.02	1.76236E-08	0.000003	0.00000175	2.98238E-06	0.000000025
55.02	2.73089E-08	0.000003	0.00000175	2.97269E-06	0.000000025
65.02	4.12342E-08	0.000003	0.00000175	2.95877E-06	0.000000025
75.01	5.97564E-08	0.000003	0.00000175	2.94024E-06	0.000000025
85.01	7.56746E-08	0.000003	0.00000175	2.92433E-06	0.000000025
95.02	9.96471E-08	0.000003	0.00000175	2.90035E-06	0.000000025
105.01	1.17288E-07	0.000003	0.00000175	2.88271E-06	0.000000025
115.03	1.45778E-07	0.000003	0.00000175	2.85422E-06	0.000000025
125.01	1.76793E-07	0.000003	0.00000175	2.82321E-06	0.000000025
135.01	2.07503E-07	0.000003	0.00000175	2.7925E-06	0.000000025
145.02	2.38989E-07	0.000003	0.00000175	2.76101E-06	0.000000025
155.02	2.77884E-07	0.000003	0.00000175	2.72212E-06	0.000000025
165.01	3.16541E-07	0.000003	0.00000175	2.68346E-06	0.000000025
175.01	3.60794E-07	0.000003	0.00000175	2.63921E-06	0.000000025
185.01	3.9795E-07	0.000003	0.00000175	2.60205E-06	0.000000025
195.02	4.37451E-07	0.000003	0.00000175	2.56255E-06	0.000000025
205.02	4.91423E-07	0.000003	0.00000175	2.50858E-06	0.000000025
215.02	5.29326E-07	0.000003	0.00000175	2.47067E-06	0.000000025
225.02	5.72457E-07	0.000003	0.00000175	2.42754E-06	0.000000025
235.01	6.18056E-07	0.000003	0.00000175	2.38194E-06	0.000000025
245.01	6.73968E-07	0.000003	0.00000175	2.32603E-06	0.000000025
255.02	7.12404E-07	0.000003	0.00000175	2.2876E-06	0.000000025
265.02	7.586E-07	0.000003	0.00000175	2.2414E-06	0.000000025
275.01	8.09E-07	0.000003	0.00000175	2.191E-06	0.000000025
285.02	8.58247E-07	0.000003	0.00000175	2.14175E-06	0.000000025
295.02	9.09184E-07	0.000003	0.00000175	2.09082E-06	0.000000025
305.01	9.58203E-07	0.000003	0.00000175	2.0418E-06	0.000000025
315.02	9.96732E-07	0.000003	0.00000175	2.00327E-06	0.000000025
325.01	1.03512E-06	0.000003	0.00000175	1.96488E-06	0.000000025
335.01	1.08698E-06	0.000003	0.00000175	1.91302E-06	0.000000025
345.01	1.12904E-06	0.000003	0.00000175	1.87096E-06	0.000000025
355.01	1.1761E-06	0.000003	0.00000175	1.8239E-06	0.000000025
365.02	1.22779E-06	0.000003	0.00000175	1.77221E-06	0.000000025
375.02	1.25538E-06	0.000003	0.00000175	1.74462E-06	0.000000025
385.01	1.31021E-06	0.000003	0.00000175	1.68979E-06	0.000000025
395.02	1.36017E-06	0.000003	0.00000175	1.63983E-06	0.000000025
405.01	1.39366E-06	0.000003	0.00000175	1.60634E-06	0.000000025
415.02	1.42966E-06	0.000003	0.00000175	1.57034E-06	0.000000025
425.02	1.47209E-06	0.000003	0.00000175	1.52791E-06	0.000000025
435.02	1.52123E-06	0.000003	0.00000175	1.47877E-06	0.000000025
445.01	1.55906E-06	0.000003	0.00000175	1.44094E-06	0.000000025
455.02	1.59113E-06	0.000003	0.00000175	1.40887E-06	0.000000025
465.02	1.62648E-06	0.000003	0.00000175	1.37352E-06	0.000000025
475.01	1.66793E-06	0.000003	0.00000175	1.33207E-06	0.000000025
485.01	1.69758E-06	0.000003	0.00000175	1.30242E-06	0.000000025
495.02	1.72255E-06	0.000003	0.00000175	1.27745E-06	0.000000025
505.01	1.76356E-06	0.000003	0.00000175	1.23644E-06	0.000000025
515.01	1.80061E-06	0.000003	0.00000175	1.19939E-06	0.000000025
525.02	1.82582E-06	0.000003	0.00000175	1.17418E-06	0.000000025
535.02	1.85693E-06	0.000003	0.00000175	1.14307E-06	0.000000025
545.01	1.88952E-06	0.000003	0.00000175	1.11048E-06	0.000000025
555.02	1.92207E-06	0.000003	0.00000175	1.07793E-06	0.000000025
565.01	1.94145E-06	0.000003	0.00000175	1.05855E-06	0.000000025
575.01	1.97789E-06	0.000003	0.00000175	1.02211E-06	0.000000025
585.02	2.01468E-06	0.000003	0.00000175	9.85315E-07	0.000000025
595.02	2.02626E-06	0.000003	0.00000175	9.7374E-07	0.000000025
605.02	2.04861E-06	0.000003	0.00000175	9.51386E-07	0.000000025
615.02	2.08376E-06	0.000003	0.00000175	9.16237E-07	0.000000025
625.02	2.10233E-06	0.000003	0.00000175	8.97667E-07	0.000000025
635.01	2.14179E-06	0.000003	0.00000175	8.58214E-07	0.000000025
645	2.14909E-06	0.000003	0.00000175	8.50909E-07	0.000000025
655.02	2.16326E-06	0.000003	0.00000175	8.36738E-07	0.000000025
665.03	2.19586E-06	0.000003	0.00000175	8.04138E-07	0.000000025
675.02	2.21887E-06	0.000003	0.00000175	7.81134E-07	0.000000025
685.01	2.24241E-06	0.000003	0.00000175	7.57592E-07	0.000000025
695.01	2.26616E-06	0.000003	0.00000175	7.33838E-07	0.000000025
705.02	2.28167E-06	0.000003	0.00000175	7.18328E-07	0.000000025
715.02	2.30094E-06	0.000003	0.00000175	6.99062E-07	0.000000025
725.02	2.31443E-06	0.000003	0.00000175	6.85574E-07	0.000000025
735.02	2.32496E-06	0.000003	0.00000175	6.75037E-07	0.000000025
745.01	2.36524E-06	0.000003	0.00000175	6.34757E-07	0.000000025
755.02	2.36557E-06	0.000003	0.00000175	6.34426E-07	0.000000025
765.02	2.38687E-06	0.000003	0.00000175	6.13134E-07	0.000000025
775.02	2.4062E-06	0.000003	0.00000175	5.938E-07	0.000000025
785.01	2.41469E-06	0.000003	0.00000175	5.85313E-07	0.000000025
795.02	2.444E-06	0.000003	0.00000175	5.56002E-07	0.000000025
805.02	2.44831E-06	0.000003	0.00000175	5.51695E-07	0.000000025
815.01	2.45845E-06	0.000003	0.00000175	5.41547E-07	0.000000025
825.03	2.47652E-06	0.000003	0.00000175	5.23479E-07	0.000000025
835.02	2.48275E-06	0.000003	0.00000175	5.17253E-07	0.000000025
845.03	2.50273E-06	0.000003	0.00000175	4.97269E-07	0.000000025
855.01	2.51567E-06	0.000003	0.00000175	4.84325E-07	0.000000025
865.01	2.5381E-06	0.000003	0.00000175	4.61901E-07	0.000000025
875.01	2.54451E-06	0.000003	0.00000175	4.55493E-07	0.000000025
885.02	2.54432E-06	0.000003	0.00000175	4.55682E-07	0.000000025
895.01	2.57022E-06	0.000003	0.00000175	4.29775E-07	0.000000025
905.02	2.57693E-06	0.000003	0.00000175	4.23066E-07	0.000000025
915.02	2.59072E-06	0.000003	0.00000175	4.09284E-07	0.000000025
925.02	2.58891E-06	0.000003	0.00000175	4.11089E-07	0.000000025
935.02	2.60746E-06	0.000003	0.00000175	3.92539E-07	0.000000025
945.02	2.62046E-06	0.000003	0.00000175	3.79543E-07	0.000000025
955.01	2.62807E-06	0.000003	0.00000175	3.71929E-07	0.000000025
965.02	2.63066E-06	0.000003	0.00000175	3.69344E-07	0.000000025
975.02	2.64903E-06	0.000003	0.00000175	3.50965E-07	0.000000025
985	2.6684E-06	0.000003	0.00000175	3.31598E-07	0.000000025
995.02	2.65735E-06	0.000003	0.00000175	3.42648E-07	0.000000025
1005.01	2.67762E-06	0.000003	0.00000175	3.22382E-07	0.000000025
1015.01	2.6848E-06	0.000003	0.00000175	3.15204E-07	0.000000025
1025.02	2.67472E-06	0.000003	0.00000175	3.25279E-07	0.000000025
1035.01	2.6937E-06	0.000003	0.00000175	3.06299E-07	0.000000025
1045.01	2.69662E-06	0.000003	0.00000175	3.03382E-07	0.000000025
1055.01	2.70826E-06	0.000003	0.00000175	2.91737E-07	0.000000025
1065.01	2.71934E-06	0.000003	0.00000175	2.80658E-07	0.000000025
1075.02	2.70311E-06	0.000003	0.00000175	2.96891E-07	0.000000025
1085.02	2.72149E-06	0.000003	0.00000175	2.78511E-07	0.000000025
1095.03	2.72846E-06	0.000003	0.00000175	2.7154E-07	0.000000025
1105.02	2.73008E-06	0.000003	0.00000175	2.69916E-07	0.000000025
1115.02	2.73394E-06	0.000003	0.00000175	2.66055E-07	0.000000025
1125.02	2.75456E-06	0.000003	0.00000175	2.4544E-07	0.000000025
1135.02	2.75667E-06	0.000003	0.00000175	2.43328E-07	0.000000025
1145	2.77547E-06	0.000003	0.00000175	2.24525E-07	0.000000025
1155.01	2.77563E-06	0.000003	0.00000175	2.24369E-07	0.000000025
1165.03	2.77723E-06	0.000003	0.00000175	2.22768E-07	0.000000025
1175.02	2.77417E-06	0.000003	0.00000175	2.25831E-07	0.000000025
1185.01	2.7811E-06	0.000003	0.00000175	2.18896E-07	0.000000025
1195.01	2.78666E-06	0.000003	0.00000175	2.13344E-07	0.000000025
1205.01	2.79976E-06	0.000003	0.00000175	2.00237E-07	0.000000025
1215.02	2.78305E-06	0.000003	0.00000175	2.16949E-07	0.000000025
1225.01	2.79427E-06	0.000003	0.00000175	2.05726E-07	0.000000025
1235.03	2.80263E-06	0.000003	0.00000175	1.97374E-07	0.000000025
1245.02	2.80969E-06	0.000003	0.00000175	1.90313E-07	0.000000025
1255.02	2.82121E-06	0.000003	0.00000175	1.78791E-07	0.000000025
1265.01	2.82325E-06	0.000003	0.00000175	1.76752E-07	0.000000025
1275.02	2.81805E-06	0.000003	0.00000175	1.81953E-07	0.000000025
1285.01	2.82461E-06	0.000003	0.00000175	1.75394E-07	0.000000025
1295.02	2.82515E-06	0.000003	0.00000175	1.74845E-07	0.000000025
1305.01	2.82926E-06	0.000003	0.00000175	1.70742E-07	0.000000025
1315.02	2.83443E-06	0.000003	0.00000175	1.65574E-07	0.000000025
1325.01	2.82951E-06	0.000003	0.00000175	1.70491E-07	0.000000025
1335.02	2.85512E-06	0.000003	0.00000175	1.44877E-07	0.000000025
1345.01	2.82556E-06	0.000003	0.00000175	1.74444E-07	0.000000025
1355.02	2.83076E-06	0.000003	0.00000175	1.69244E-07	0.000000025
1365.02	2.82948E-06	0.000003	0.00000175	1.70524E-07	0.000000025
1375.01	2.85205E-06	0.000003	0.00000175	1.47948E-07	0.000000025
1385.02	2.84327E-06	0.000003	0.00000175	1.56732E-07	0.000000025
1395.03	2.8648E-06	0.000003	0.00000175	1.35199E-07	0.000000025
1405.01	2.85467E-06	0.000003	0.00000175	1.45327E-07	0.000000025
1415.01	2.85178E-06	0.000003	0.00000175	1.48224E-07	0.000000025
1425.01	2.85136E-06	0.000003	0.00000175	1.48641E-07	0.000000025
1435.01	2.85311E-06	0.000003	0.00000175	1.46891E-07	0.000000025
1445.01	2.86271E-06	0.000003	0.00000175	1.37287E-07	0.000000025
1455.02	2.86987E-06	0.000003	0.00000175	1.30128E-07	0.000000025
1465.01	2.86087E-06	0.000003	0.00000175	1.39131E-07	0.000000025
1475.02	2.85566E-06	0.000003	0.00000175	1.44337E-07	0.000000025
1485.03	2.86435E-06	0.000003	0.00000175	1.35649E-07	0.000000025
1495.02	2.86259E-06	0.000003	0.00000175	1.37413E-07	0.000000025
1505.01	2.87351E-06	0.000003	0.00000175	1.26492E-07	0.000000025
1515.02	2.87302E-06	0.000003	0.00000175	1.2698E-07	0.000000025
1525.02	2.87535E-06	0.000003	0.00000175	1.24651E-07	0.000000025
1535.02	2.86496E-06	0.000003	0.00000175	1.35038E-07	0.000000025
1545.01	2.8797E-06	0.000003	0.00000175	1.20297E-07	0.000000025
1555.01	2.8682E-06	0.000003	0.00000175	1.31802E-07	0.000000025
1565.01	2.8684E-06	0.000003	0.00000175	1.31596E-07	0.000000025
1575.01	2.87374E-06	0.000003	0.00000175	1.26265E-07	0.000000025
1585.02	2.87197E-06	0.000003	0.00000175	1.28027E-07	0.000000025
1595.02	2.86672E-06	0.000003	0.00000175	1.33282E-07	0.000000025
1605.01	2.87491E-06	0.000003	0.00000175	1.25089E-07	0.000000025
1615.02	2.88634E-06	0.000003	0.00000175	1.1366E-07	0.000000025
1625	2.88878E-06	0.000003	0.00000175	1.11218E-07	0.000000025
1635.02	2.88481E-06	0.000003	0.00000175	1.15193E-07	0.000000025
1645.02	2.88329E-06	0.000003	0.00000175	1.16711E-07	0.000000025
1655.01	2.88417E-06	0.000003	0.00000175	1.1583E-07	0.000000025
1665.01	2.87222E-06	0.000003	0.00000175	1.27785E-07	0.000000025
1675.01	0.0000029	0.000003	0.00000175	1E-07	0.000000025
1685.01	2.89155E-06	0.000003	0.00000175	1.08447E-07	0.000000025
1695.01	2.88455E-06	0.000003	0.00000175	1.15446E-07	0.000000025
1705.01	2.88349E-06	0.000003	0.00000175	1.16512E-07	0.000000025
1715.03	2.87609E-06	0.000003	0.00000175	1.23912E-07	0.000000025
1725.01	2.88437E-06	0.000003	0.00000175	1.15627E-07	0.000000025
1735.01	2.89054E-06	0.000003	0.00000175	1.09458E-07	0.000000025
1745.02	2.88338E-06	0.000003	0.00000175	1.16623E-07	0.000000025
1755.02	2.8969E-06	0.000003	0.00000175	1.03099E-07	0.000000025
1765.01	2.87646E-06	0.000003	0.00000175	1.23541E-07	0.000000025
1775.01	2.86357E-06	0.000003	0.00000175	1.36433E-07	0.000000025
1785.01	2.87461E-06	0.000003	0.00000175	1.25394E-07	0.000000025
1795.01	2.87984E-06	0.000003	0.00000175	1.20162E-07	0.000000025
1805.02	2.88382E-06	0.000003	0.00000175	1.16185E-07	0.000000025
1815.01	2.89903E-06	0.000003	0.00000175	1.00973E-07	0.000000025
